#  Energy(Ry)          total             X             Y             Z
#  Broadening is:       0.0150000     Ry
      0.00000000E+00      0.00000000E+00      0.00000000E+00      0.00000000E+00      0.00000000E+00
      0.10000000E-02      0.49615012E-04      0.22383286E-04      0.22218738E-04      0.50129881E-05
      0.20000000E-02      0.99624250E-04      0.44944461E-04      0.44614249E-04      0.10065539E-04
      0.30000000E-02      0.15003125E-03      0.67685120E-04      0.67188121E-04      0.15158008E-04
      0.40000000E-02      0.20083959E-03      0.90606877E-04      0.89941957E-04      0.20290755E-04
      0.50000000E-02      0.25205288E-03      0.11371136E-03      0.11287738E-03      0.25464140E-04
      0.60000000E-02      0.30367478E-03      0.13700022E-03      0.13599602E-03      0.30678533E-04
      0.70000000E-02      0.35570897E-03      0.16047512E-03      0.15929955E-03      0.35934301E-04
      0.80000000E-02      0.40815919E-03      0.18413774E-03      0.18278963E-03      0.41231822E-04
      0.90000000E-02      0.46102921E-03      0.20798978E-03      0.20646795E-03      0.46571473E-04
      0.10000000E-01      0.51432284E-03      0.23203297E-03      0.23033624E-03      0.51953636E-04
      0.11000000E-01      0.56804393E-03      0.25626903E-03      0.25439620E-03      0.57378699E-04
      0.12000000E-01      0.62219639E-03      0.28069974E-03      0.27864960E-03      0.62847054E-04
      0.13000000E-01      0.67678414E-03      0.30532685E-03      0.30309820E-03      0.68359095E-04
      0.14000000E-01      0.73181118E-03      0.33015218E-03      0.32774378E-03      0.73915222E-04
      0.15000000E-01      0.78728151E-03      0.35517753E-03      0.35258815E-03      0.79515839E-04
      0.16000000E-01      0.84319921E-03      0.38040473E-03      0.37763313E-03      0.85161356E-04
      0.17000000E-01      0.89956840E-03      0.40583565E-03      0.40288057E-03      0.90852185E-04
      0.18000000E-01      0.95639323E-03      0.43147215E-03      0.42833233E-03      0.96588743E-04
      0.19000000E-01      0.10136779E-02      0.45731613E-03      0.45399031E-03      0.10237145E-03
      0.20000000E-01      0.10714267E-02      0.48336951E-03      0.47985640E-03      0.10820074E-03
      0.21000000E-01      0.11296438E-02      0.50963423E-03      0.50593252E-03      0.11407704E-03
      0.22000000E-01      0.11883337E-02      0.53611224E-03      0.53222064E-03      0.12000079E-03
      0.23000000E-01      0.12475007E-02      0.56280552E-03      0.55872272E-03      0.12597243E-03
      0.24000000E-01      0.13071492E-02      0.58971608E-03      0.58544075E-03      0.13199240E-03
      0.25000000E-01      0.13672838E-02      0.61684594E-03      0.61237675E-03      0.13806116E-03
      0.26000000E-01      0.14279090E-02      0.64419714E-03      0.63953275E-03      0.14417915E-03
      0.27000000E-01      0.14890294E-02      0.67177176E-03      0.66691080E-03      0.15034686E-03
      0.28000000E-01      0.15506496E-02      0.69957190E-03      0.69451300E-03      0.15656473E-03
      0.29000000E-01      0.16127744E-02      0.72759965E-03      0.72234145E-03      0.16283325E-03
      0.30000000E-01      0.16754083E-02      0.75585717E-03      0.75039828E-03      0.16915289E-03
      0.31000000E-01      0.17385564E-02      0.78434662E-03      0.77868563E-03      0.17552413E-03
      0.32000000E-01      0.18022233E-02      0.81307019E-03      0.80720569E-03      0.18194746E-03
      0.33000000E-01      0.18664141E-02      0.84203009E-03      0.83596066E-03      0.18842338E-03
      0.34000000E-01      0.19311337E-02      0.87122856E-03      0.86495276E-03      0.19495238E-03
      0.35000000E-01      0.19963871E-02      0.90066786E-03      0.89418424E-03      0.20153496E-03
      0.36000000E-01      0.20621793E-02      0.93035027E-03      0.92365739E-03      0.20817165E-03
      0.37000000E-01      0.21285156E-02      0.96027813E-03      0.95337451E-03      0.21486296E-03
      0.38000000E-01      0.21954011E-02      0.99045376E-03      0.98333792E-03      0.22160941E-03
      0.39000000E-01      0.22628410E-02      0.10208795E-02      0.10135500E-02      0.22841152E-03
      0.40000000E-01      0.23308408E-02      0.10515578E-02      0.10440131E-02      0.23526984E-03
      0.41000000E-01      0.23994056E-02      0.10824911E-02      0.10747296E-02      0.24218490E-03
      0.42000000E-01      0.24685411E-02      0.11136818E-02      0.11057020E-02      0.24915725E-03
      0.43000000E-01      0.25382526E-02      0.11451324E-02      0.11369328E-02      0.25618744E-03
      0.44000000E-01      0.26085458E-02      0.11768454E-02      0.11684244E-02      0.26327605E-03
      0.45000000E-01      0.26794263E-02      0.12088233E-02      0.12001794E-02      0.27042362E-03
      0.46000000E-01      0.27508997E-02      0.12410687E-02      0.12322003E-02      0.27763074E-03
      0.47000000E-01      0.28229718E-02      0.12735842E-02      0.12644897E-02      0.28489798E-03
      0.48000000E-01      0.28956485E-02      0.13063724E-02      0.12970501E-02      0.29222593E-03
      0.49000000E-01      0.29689355E-02      0.13394360E-02      0.13298844E-02      0.29961519E-03
      0.50000000E-01      0.30428390E-02      0.13727776E-02      0.13629951E-02      0.30706636E-03
      0.51000000E-01      0.31173649E-02      0.14064000E-02      0.13963849E-02      0.31458004E-03
      0.52000000E-01      0.31925194E-02      0.14403060E-02      0.14300566E-02      0.32215685E-03
      0.53000000E-01      0.32683085E-02      0.14744982E-02      0.14640129E-02      0.32979741E-03
      0.54000000E-01      0.33447386E-02      0.15089796E-02      0.14982566E-02      0.33750235E-03
      0.55000000E-01      0.34218159E-02      0.15437530E-02      0.15327906E-02      0.34527230E-03
      0.56000000E-01      0.34995469E-02      0.15788212E-02      0.15676178E-02      0.35310792E-03
      0.57000000E-01      0.35779380E-02      0.16141872E-02      0.16027409E-02      0.36100986E-03
      0.58000000E-01      0.36569958E-02      0.16498539E-02      0.16381631E-02      0.36897877E-03
      0.59000000E-01      0.37367268E-02      0.16858243E-02      0.16738872E-02      0.37701533E-03
      0.60000000E-01      0.38171379E-02      0.17221014E-02      0.17099163E-02      0.38512021E-03
      0.61000000E-01      0.38982357E-02      0.17586883E-02      0.17462533E-02      0.39329409E-03
      0.62000000E-01      0.39800272E-02      0.17955881E-02      0.17829014E-02      0.40153767E-03
      0.63000000E-01      0.40625193E-02      0.18328039E-02      0.18198637E-02      0.40985165E-03
      0.64000000E-01      0.41457190E-02      0.18703389E-02      0.18571434E-02      0.41823674E-03
      0.65000000E-01      0.42296334E-02      0.19081962E-02      0.18947435E-02      0.42669365E-03
      0.66000000E-01      0.43142698E-02      0.19463792E-02      0.19326674E-02      0.43522312E-03
      0.67000000E-01      0.43996354E-02      0.19848911E-02      0.19709184E-02      0.44382589E-03
      0.68000000E-01      0.44857376E-02      0.20237352E-02      0.20094997E-02      0.45250268E-03
      0.69000000E-01      0.45725839E-02      0.20629149E-02      0.20484146E-02      0.46125427E-03
      0.70000000E-01      0.46601818E-02      0.21024337E-02      0.20876667E-02      0.47008142E-03
      0.71000000E-01      0.47485389E-02      0.21422948E-02      0.21272592E-02      0.47898489E-03
      0.72000000E-01      0.48376631E-02      0.21825020E-02      0.21671957E-02      0.48796547E-03
      0.73000000E-01      0.49275622E-02      0.22230585E-02      0.22074797E-02      0.49702396E-03
      0.74000000E-01      0.50182440E-02      0.22639682E-02      0.22481147E-02      0.50616115E-03
      0.75000000E-01      0.51097167E-02      0.23052345E-02      0.22891044E-02      0.51537785E-03
      0.76000000E-01      0.52019884E-02      0.23468611E-02      0.23304524E-02      0.52467490E-03
      0.77000000E-01      0.52950672E-02      0.23888517E-02      0.23721623E-02      0.53405312E-03
      0.78000000E-01      0.53889615E-02      0.24312102E-02      0.24142380E-02      0.54351336E-03
      0.79000000E-01      0.54836799E-02      0.24739402E-02      0.24566832E-02      0.55305646E-03
      0.80000000E-01      0.55792307E-02      0.25170457E-02      0.24995017E-02      0.56268330E-03
      0.81000000E-01      0.56756227E-02      0.25605305E-02      0.25426974E-02      0.57239476E-03
      0.82000000E-01      0.57728646E-02      0.26043986E-02      0.25862743E-02      0.58219170E-03
      0.83000000E-01      0.58709653E-02      0.26486540E-02      0.26302362E-02      0.59207505E-03
      0.84000000E-01      0.59699337E-02      0.26933007E-02      0.26745873E-02      0.60204569E-03
      0.85000000E-01      0.60697790E-02      0.27383428E-02      0.27193317E-02      0.61210457E-03
      0.86000000E-01      0.61705104E-02      0.27837844E-02      0.27644733E-02      0.62225260E-03
      0.87000000E-01      0.62721371E-02      0.28296299E-02      0.28100165E-02      0.63249073E-03
      0.88000000E-01      0.63746687E-02      0.28758833E-02      0.28559654E-02      0.64281993E-03
      0.89000000E-01      0.64781147E-02      0.29225491E-02      0.29023244E-02      0.65324115E-03
      0.90000000E-01      0.65824847E-02      0.29696315E-02      0.29490978E-02      0.66375539E-03
      0.91000000E-01      0.66877886E-02      0.30171351E-02      0.29962899E-02      0.67436363E-03
      0.92000000E-01      0.67940364E-02      0.30650642E-02      0.30439053E-02      0.68506689E-03
      0.93000000E-01      0.69012380E-02      0.31134234E-02      0.30919484E-02      0.69586618E-03
      0.94000000E-01      0.70094037E-02      0.31622174E-02      0.31404238E-02      0.70676254E-03
      0.95000000E-01      0.71185438E-02      0.32114506E-02      0.31893362E-02      0.71775701E-03
      0.96000000E-01      0.72286687E-02      0.32611279E-02      0.32386901E-02      0.72885066E-03
      0.97000000E-01      0.73397891E-02      0.33112541E-02      0.32884905E-02      0.74004457E-03
      0.98000000E-01      0.74519156E-02      0.33618338E-02      0.33387420E-02      0.75133982E-03
      0.99000000E-01      0.75650591E-02      0.34128721E-02      0.33894495E-02      0.76273751E-03
      0.10000000E+00      0.76792307E-02      0.34643739E-02      0.34406180E-02      0.77423876E-03
      0.10100000E+00      0.77944415E-02      0.35163443E-02      0.34922526E-02      0.78584472E-03
      0.10200000E+00      0.79107028E-02      0.35687882E-02      0.35443581E-02      0.79755652E-03
      0.10300000E+00      0.80280260E-02      0.36217109E-02      0.35969398E-02      0.80937533E-03
      0.10400000E+00      0.81464228E-02      0.36751175E-02      0.36500029E-02      0.82130233E-03
      0.10500000E+00      0.82659048E-02      0.37290135E-02      0.37035526E-02      0.83333871E-03
      0.10600000E+00      0.83864840E-02      0.37834040E-02      0.37575943E-02      0.84548569E-03
      0.10700000E+00      0.85081725E-02      0.38382946E-02      0.38121334E-02      0.85774449E-03
      0.10800000E+00      0.86309825E-02      0.38936908E-02      0.38671753E-02      0.87011636E-03
      0.10900000E+00      0.87549264E-02      0.39495981E-02      0.39227257E-02      0.88260255E-03
      0.11000000E+00      0.88800167E-02      0.40060223E-02      0.39787900E-02      0.89520436E-03
      0.11100000E+00      0.90062661E-02      0.40629689E-02      0.40353741E-02      0.90792306E-03
      0.11200000E+00      0.91336876E-02      0.41204438E-02      0.40924838E-02      0.92075998E-03
      0.11300000E+00      0.92622942E-02      0.41784530E-02      0.41501247E-02      0.93371645E-03
      0.11400000E+00      0.93920991E-02      0.42370023E-02      0.42083030E-02      0.94679381E-03
      0.11500000E+00      0.95231158E-02      0.42960978E-02      0.42670246E-02      0.95999344E-03
      0.11600000E+00      0.96553579E-02      0.43557456E-02      0.43262956E-02      0.97331672E-03
      0.11700000E+00      0.97888391E-02      0.44159520E-02      0.43861221E-02      0.98676506E-03
      0.11800000E+00      0.99235735E-02      0.44767231E-02      0.44465105E-02      0.10003399E-02
      0.11900000E+00      0.10059575E-01      0.45380655E-02      0.45074671E-02      0.10140426E-02
      0.12000000E+00      0.10196859E-01      0.45999855E-02      0.45689983E-02      0.10278748E-02
      0.12100000E+00      0.10335438E-01      0.46624896E-02      0.46311107E-02      0.10418378E-02
      0.12200000E+00      0.10475329E-01      0.47255847E-02      0.46938108E-02      0.10559332E-02
      0.12300000E+00      0.10616545E-01      0.47892773E-02      0.47571054E-02      0.10701626E-02
      0.12400000E+00      0.10759103E-01      0.48535743E-02      0.48210012E-02      0.10845274E-02
      0.12500000E+00      0.10903017E-01      0.49184826E-02      0.48855052E-02      0.10990292E-02
      0.12600000E+00      0.11048303E-01      0.49840093E-02      0.49506242E-02      0.11136697E-02
      0.12700000E+00      0.11194977E-01      0.50501613E-02      0.50163655E-02      0.11284504E-02
      0.12800000E+00      0.11343055E-01      0.51169461E-02      0.50827362E-02      0.11433730E-02
      0.12900000E+00      0.11492553E-01      0.51843708E-02      0.51497436E-02      0.11584392E-02
      0.13000000E+00      0.11643488E-01      0.52524428E-02      0.52173949E-02      0.11736506E-02
      0.13100000E+00      0.11795877E-01      0.53211698E-02      0.52856979E-02      0.11890089E-02
      0.13200000E+00      0.11949735E-01      0.53905593E-02      0.53546599E-02      0.12045160E-02
      0.13300000E+00      0.12105081E-01      0.54606191E-02      0.54242888E-02      0.12201735E-02
      0.13400000E+00      0.12261932E-01      0.55313569E-02      0.54945923E-02      0.12359832E-02
      0.13500000E+00      0.12420306E-01      0.56027808E-02      0.55655783E-02      0.12519470E-02
      0.13600000E+00      0.12580220E-01      0.56748988E-02      0.56372550E-02      0.12680666E-02
      0.13700000E+00      0.12741693E-01      0.57477190E-02      0.57096303E-02      0.12843440E-02
      0.13800000E+00      0.12904744E-01      0.58212499E-02      0.57827127E-02      0.13007811E-02
      0.13900000E+00      0.13069390E-01      0.58954998E-02      0.58565104E-02      0.13173797E-02
      0.14000000E+00      0.13235651E-01      0.59704772E-02      0.59310320E-02      0.13341419E-02
      0.14100000E+00      0.13403546E-01      0.60461908E-02      0.60062861E-02      0.13510695E-02
      0.14200000E+00      0.13573095E-01      0.61226494E-02      0.60822814E-02      0.13681646E-02
      0.14300000E+00      0.13744318E-01      0.61998619E-02      0.61590269E-02      0.13854293E-02
      0.14400000E+00      0.13917234E-01      0.62778373E-02      0.62365314E-02      0.14028656E-02
      0.14500000E+00      0.14091865E-01      0.63565849E-02      0.63148043E-02      0.14204756E-02
      0.14600000E+00      0.14268230E-01      0.64361138E-02      0.63938546E-02      0.14382614E-02
      0.14700000E+00      0.14446351E-01      0.65164337E-02      0.64736919E-02      0.14562252E-02
      0.14800000E+00      0.14626249E-01      0.65975540E-02      0.65543257E-02      0.14743692E-02
      0.14900000E+00      0.14807946E-01      0.66794844E-02      0.66357656E-02      0.14926957E-02
      0.15000000E+00      0.14991463E-01      0.67622349E-02      0.67180215E-02      0.15112068E-02
      0.15100000E+00      0.15176824E-01      0.68458155E-02      0.68011033E-02      0.15299049E-02
      0.15200000E+00      0.15364050E-01      0.69302362E-02      0.68850213E-02      0.15487923E-02
      0.15300000E+00      0.15553164E-01      0.70155075E-02      0.69697856E-02      0.15678714E-02
      0.15400000E+00      0.15744191E-01      0.71016398E-02      0.70554066E-02      0.15871445E-02
      0.15500000E+00      0.15937153E-01      0.71886437E-02      0.71418950E-02      0.16066142E-02
      0.15600000E+00      0.16132074E-01      0.72765300E-02      0.72292615E-02      0.16262829E-02
      0.15700000E+00      0.16328980E-01      0.73653096E-02      0.73175170E-02      0.16461531E-02
      0.15800000E+00      0.16527894E-01      0.74549937E-02      0.74066726E-02      0.16662273E-02
      0.15900000E+00      0.16728841E-01      0.75455935E-02      0.74967394E-02      0.16865083E-02
      0.16000000E+00      0.16931848E-01      0.76371204E-02      0.75877289E-02      0.17069985E-02
      0.16100000E+00      0.17136940E-01      0.77295862E-02      0.76796527E-02      0.17277007E-02
      0.16200000E+00      0.17344143E-01      0.78230026E-02      0.77725225E-02      0.17486176E-02
      0.16300000E+00      0.17553484E-01      0.79173816E-02      0.78663503E-02      0.17697519E-02
      0.16400000E+00      0.17764990E-01      0.80127353E-02      0.79611481E-02      0.17911065E-02
      0.16500000E+00      0.17978689E-01      0.81090761E-02      0.80569283E-02      0.18126843E-02
      0.16600000E+00      0.18194608E-01      0.82064165E-02      0.81537033E-02      0.18344880E-02
      0.16700000E+00      0.18412776E-01      0.83047694E-02      0.82514859E-02      0.18565207E-02
      0.16800000E+00      0.18633222E-01      0.84041475E-02      0.83502890E-02      0.18787853E-02
      0.16900000E+00      0.18855974E-01      0.85045641E-02      0.84501256E-02      0.19012849E-02
      0.17000000E+00      0.19081064E-01      0.86060324E-02      0.85510089E-02      0.19240225E-02
      0.17100000E+00      0.19308520E-01      0.87085661E-02      0.86529526E-02      0.19470013E-02
      0.17200000E+00      0.19538374E-01      0.88121789E-02      0.87559703E-02      0.19702246E-02
      0.17300000E+00      0.19770656E-01      0.89168848E-02      0.88600759E-02      0.19936954E-02
      0.17400000E+00      0.20005399E-01      0.90226979E-02      0.89652835E-02      0.20174171E-02
      0.17500000E+00      0.20242634E-01      0.91296327E-02      0.90716077E-02      0.20413931E-02
      0.17600000E+00      0.20482393E-01      0.92377039E-02      0.91790628E-02      0.20656268E-02
      0.17700000E+00      0.20724712E-01      0.93469263E-02      0.92876639E-02      0.20901216E-02
      0.17800000E+00      0.20969622E-01      0.94573150E-02      0.93974258E-02      0.21148809E-02
      0.17900000E+00      0.21217158E-01      0.95688855E-02      0.95083640E-02      0.21399085E-02
      0.18000000E+00      0.21467355E-01      0.96816533E-02      0.96204940E-02      0.21652079E-02
      0.18100000E+00      0.21720249E-01      0.97956343E-02      0.97338316E-02      0.21907828E-02
      0.18200000E+00      0.21975874E-01      0.99108447E-02      0.98483928E-02      0.22166370E-02
      0.18300000E+00      0.22234269E-01      0.10027301E-01      0.99641940E-02      0.22427743E-02
      0.18400000E+00      0.22495469E-01      0.10145019E-01      0.10081252E-01      0.22691985E-02
      0.18500000E+00      0.22759513E-01      0.10264017E-01      0.10199583E-01      0.22959136E-02
      0.18600000E+00      0.23026439E-01      0.10384311E-01      0.10319205E-01      0.23229237E-02
      0.18700000E+00      0.23296286E-01      0.10505919E-01      0.10440134E-01      0.23502327E-02
      0.18800000E+00      0.23569093E-01      0.10628859E-01      0.10562390E-01      0.23778449E-02
      0.18900000E+00      0.23844901E-01      0.10753148E-01      0.10685989E-01      0.24057645E-02
      0.19000000E+00      0.24123751E-01      0.10878806E-01      0.10810950E-01      0.24339957E-02
      0.19100000E+00      0.24405684E-01      0.11005850E-01      0.10937291E-01      0.24625430E-02
      0.19200000E+00      0.24690743E-01      0.11134300E-01      0.11065032E-01      0.24914107E-02
      0.19300000E+00      0.24978971E-01      0.11264176E-01      0.11194192E-01      0.25206035E-02
      0.19400000E+00      0.25270411E-01      0.11395496E-01      0.11324790E-01      0.25501258E-02
      0.19500000E+00      0.25565108E-01      0.11528280E-01      0.11456846E-01      0.25799824E-02
